0.328437004822662
0.372811797047799
0.346982948709378
0.310153842070323
0.305013965836427
0.325096967485482
0.337933107825354
0.330290762755504
0.316428545365749
0.313426245784449
0.321041207861764
0.325899900252375
0.32234313435165
0.316215727215708
0.314508424695037
0.317383071730568
0.319124513219844
0.317973937458423
0.316178658089687
0.315830243763927
0.31706497293655
0.317725637146188
0.317883803064066
0.3182245148831
0.318798070092995
0.319768812685696
0.320109728154193
0.320936170407289
0.321713891745843
0.322405791888433
0.323426948816893
0.323658307931869
0.324103386082471
0.324207692256823
0.323995708183533
0.323983621706423
0.323157642652691
0.322588414409381
0.321773422992311
0.320747757445573
0.320007386781209
0.318467592762876
0.317155636402387
0.31560351408804
0.313941278130825
0.31277063921732
0.310990870954744
0.309556594648517
0.307946742571288
0.306354002741886
0.30553389165343
0.304434285143596
0.303880403086203
0.303065892575464
0.301958985672564
0.301319082632704
0.300332693574728
0.300133371730468
0.300081255575459
0.300116006313989
0.300841934441678
0.301323658661979
0.302636555678624
0.304087710608576
0.305490208337771
0.307283435020524
0.308466635143514
0.310195290225622
0.3119451919835
0.313605013563071
0.315554003664969
0.316639551803281
0.317928432874663
0.318932714183388
0.319607057481818
0.32040501027373
0.320164054214622
0.319969428443701
0.319433787093966
0.318669657921636
0.318337368112619
0.317339917671761
0.316735403349052
0.316019188522516
0.31517352243107
0.314838281378431
0.313910068681649
0.313522325519614
0.313239920855799
0.313117647313895
0.313883984996379
0.31438336506354
0.315701792961283
0.317264424917458
0.319003628176399
0.321597880751294
0.323750487599784
0.326483179949266
0.329117120499478
0.33157856818241
0.3347194560045
0.337394169556378
0.340800309446623
0.344215370245991
0.347347567631828
0.350862969800868
0.353496068575193
0.35657734446649
0.359621314644547
0.362535367329676
0.366131711913689
0.369151774456885
0.372916524646504
0.376879619459605
0.380810257252643
0.385376688951724
0.389147615995195
0.393414527206455
0.397682659299691
0.401817551897103
0.406609783452366
0.410591730987214
0.415086866716462
0.419550328629463
0.423816362434806
0.428717649636555
0.432633673215207
0.436867106454079
0.440746166886068
0.444057472180899
0.447803577277581
0.450439773028904
0.453548233839348
0.456533751873683
0.459157478051746
0.462436121802368
0.464661792637282
0.467541986374913
0.470585467407306
0.473702910410275
0.47810248740771
0.481931620457384
0.486848257071694
0.492150193354036
0.497630234511684
0.504584212009634
0.511088229676251
0.518865852063301
0.527028122992302
0.535131682229176
0.544346561261773
0.552581780913091
0.561675601214063
0.570796973557681
0.579596189257754
0.589357540615193
0.597992057365754
0.607456486399582
0.616920534481433
0.626021641172223
0.636038538637203
0.64482504129154
0.654437822127243
0.664097643123608
0.673463682741069
0.683753357739769
0.692583278852507
0.701863192864927
0.710681222012137
0.718740449416189
0.727412417218617
0.734381711686919
0.741630338358564
0.748097207120824
0.753394779260067
0.758904197826311
0.762497077352263
0.766580902009765
0.770370396394102
0.773677162208655
0.777751551371824
0.780250877457078
0.783449534615349
0.7864701424662
0.789292767479762
0.793179342881654
0.795792455996583
0.799262647968698
0.802429407723806
0.805215703117498
0.808766183788492
0.810873016215966
0.813733942690798
0.816053030100926
0.817653116885601
0.819342968689561
0.818865101433546
0.818466325936342
0.816957320628305
0.814416886802595
0.811629072934646
0.806467651323122
0.801221900326381
0.794797830954722
0.787509279323547
0.780137292326953
0.770701034030534
0.761426127638313
0.751187271436691
0.7403864864779
0.729718633475241
0.71734110543468
0.705449246041602
0.692940122777225
0.680325366080048
0.668166516832931
0.654611924329678
0.641625486374067
0.627941973856727
0.614120912092453
0.600729572501305
0.586171701561831
0.572466355651397
0.558356529867857
0.544382411855758
0.53090688721455
0.516337293821745
0.502554535921436
0.488357777853428
0.474409524357575
0.461084201927795
0.446922577487095
0.433581890693816
0.41976935586419
0.40605006936695
0.392772485912622
0.378757398495622
0.365686409938563
0.352433601523418
0.339498086247017
0.327085084948089
0.314084846225393
0.302054675729982
0.290039592211449
0.278509207666708
0.267521085768386
0.255885809068575
0.244837145885079
0.233530428025323
0.222572476809605
0.212251420307914
0.201707426260369
0.192038015703646
0.182425961645576
0.173343016026771
0.165013749396374
0.156751680303398
0.149500534400952
0.142501438944247
0.136069249708438
0.130261456150005
0.124428374587837
0.119322237383407
0.114323062690007
0.109771186661859
0.105767849010688
0.101782418440444
0.0983605269853807
0.0948498567783728
0.0913870694048499
0.0879543165457298
0.0840551445066898
0.0801522603447881
0.0757930419273144
0.0712280918268708
0.0666416973465837
0.0618144660722645
0.0572278323685417
0.052552668565761
0.0479472999431183
0.0435000100818392
0.0390398932059603
0.0349538144595736
0.0310228510936584
0.0274049283759474
0.0241755083453001
0.0212659985879174
0.0190277964242664
0.0173193997984218
0.0162296252783284
0.0156663656053425
0.0154061056792098
0.0155667337832977
0.0159307188720636
0.0165165512980654
0.0171773348769237
0.0176336781116771
0.0178640409696144
0.0175946005907968
0.0168329890148006
0.0155868409068382
0.0138702231258823
0.0119346395388874
0.00979217459263838
0.00754221115772492
0.00516910540277797
0.0026347356108249
7.59256331126397e-05
-0.00243958516930678
-0.00473899284187776
-0.0067595993728635
-0.0084941555704725
-0.00994188156299927
-0.0111451267932187
-0.0120616024545552
-0.0127239517606842
-0.0131528124126471
-0.0133873626774293
-0.0134236764696795
-0.0131307184504324
-0.0124853776651714
-0.0115655072830859
-0.0106301952406602
-0.00997049046305312
-0.00964862366781577
-0.00962248851901746
-0.00974535822331443
-0.00998654938467929
-0.0104121803474755
-0.0110123878312685
-0.0117696553786329
-0.012574308134267
-0.013438515803038
-0.0144127760411774
-0.0155048029898185
-0.0167001866858981
-0.0178591631889531
-0.0189249506295196
-0.0198208293824291
-0.0205185409838388
-0.0210740451036333
-0.0215645608951661
-0.0221238061121073
-0.0227121266083585
-0.0231796143426374
-0.0233802613602573
-0.0233534335752993
-0.0233668831052318
-0.0236232697876139
-0.0241090588832647
-0.0245731318378214
-0.0248154356641124
-0.0248427091401279
-0.0247763670400587
-0.024698075567842
-0.0244936071393172
-0.0240405843214196
-0.0233001352074079
-0.0222860330523266
-0.0210205696785905
-0.0194040264350435
-0.0173959681621469
-0.0150759911392168
-0.0125788681135493
-0.010083988380035
-0.00763437105641055
-0.00527687372398494
-0.00308984508582516
-0.00110088936866319
0.000658733711478432
0.00230621625662402
0.00393960861697621
0.00556028536461003
0.00714322742844735
0.00856119668771711
0.00978153791602601
0.0108217696053615
0.0116914632285333
0.0124698837809562
0.0131340555232272
0.0136782481427356
0.0141199755675343
0.014462007793943
0.0148260295810598
0.0152680780820133
0.015825415002351
0.0164539908944244
0.0170196602096599
0.017455039618305
0.0177210635132582
0.0178930571634622
0.0180456940297286
0.0181804137806404
0.0181784276357159
0.017842757709648
0.0170978101784194
0.0160489529191691
0.0149656671069004
0.0140085665951887
0.0130998987078773
0.0120082294741458
0.0105864868872202
0.00900948781445545
0.00762166343173259
0.00675742212542006
0.00652102527735067
0.00679341784787139
0.00738256813941045
0.00802413900799379
0.00853154321878395
0.00882724153397469
0.00900690295108875
0.0093107436000484
0.00980868916581454
0.0103601212272103
0.0106563095995731
0.0104774065917814
0.00994685450184168
0.00928229252819504
0.00865765531683559
0.00803199454893193
0.00721039017491858
0.0061610834128123
0.00493273503574882
0.00366828812420996
0.00246526565363257
0.00130132837903129
0.000199918292953973
-0.000808320113042125
-0.00162178477468276
-0.00214716685961547
-0.00238258811439701
-0.00240731351924432
-0.00236144209090351
-0.00231133596878215
-0.00222669155811974
-0.00197947257672155
-0.00143031846197675
-0.000567659387522135
0.000521124179380297
0.00167001866858981
0.0027597063861022
0.00379115734245324
0.00479127008157164
0.00578344421543804
0.00668007467435923
0.00729100490100094
0.00747918912637858
0.0071945661943007
0.0065472775001311
0.00572577829230791
0.00480744261358308
0.00377476826773736
0.00250722772638912
0.000938069226442034
-0.000795246985042765
-0.00243332241059813
-0.00366059598193819
-0.00431042483274225
-0.00446602008673241
-0.00437385841773521
-0.00434529436859717
-0.00450040207596215
-0.00471338666218439
-0.00470433014291946
-0.00421480902072666
-0.00325799500230643
-0.00201253977862192
-0.000704443849482621
0.000606901739315562
0.00206764216111119
0.00375994875997874
0.00565306936746972
0.00747863749867171
0.00894461644037024
0.00994058731303456
0.010511198665855
0.0108496469048766
0.0110704068758087
0.0111776029375393
0.0111334577905987
0.0109494550692559
0.0107318180687231
0.0106282801916093
0.0107029933354459
0.0108948836950859
0.0111314965407399
0.0113426373833331
0.0115989441927852
0.0120222656318095
0.01264442706218
0.0134476414892941
0.0142324027836861
0.0148194236483261
0.0151046958552016
0.0150301680173083
0.0146663094767726
0.0140301505808219
0.0130885502371668
0.0117934634325077
0.0100996367100431
0.008091712126505
0.00597355088766577
0.00391246321034676
0.00199359033521253
0.000159049397008553
-0.00174628455431942
-0.00377960292499939
-0.00597075484524832
-0.00825518806600247
-0.0104972602025645
-0.0126297134184707
-0.0145125259674444
-0.0161501118163901
-0.0175867392369205
-0.0187678288470093
-0.0196483511039348
-0.01994006721617
-0.0195098154692279
-0.0184081539533904
-0.0167797113844023
-0.0149645802817176
-0.0129898638148358
-0.0108546374152803
-0.00852733602008944
-0.00596435238782074
-0.00338165465526089
-0.000843423830988156
0.00158911904786418
0.0039423163389473
0.00636197588034212
0.00885213669548142
0.0114199100816002
0.0140268008833372
0.0166439599036418
0.0193245017365392
0.0221080439343232
0.024928849983255
0.0277042972006311
0.0303137421625233
0.0326846510852576
0.0349162509320008
0.0369748304774801
0.0388735101588621
0.0405100921328607
0.0416709420162409
0.0423296271900692
0.0423626031194202
0.0418342095747893
0.0408258096110738
0.0392852010611126
0.0372601349429644
0.0346331123005335
0.031425093356023
0.0277793508732486
0.0237778848527787
0.0196283808693559
0.0153387069626762
0.010883529110307
0.00627800468152828
0.00143144457307698
-0.00356423658443608
-0.008651975303963
-0.0137328179591673
-0.0185699726685946
-0.0230621625662402
-0.0270269696390989
-0.0303658115925146
-0.0330840250694547
-0.0350951082124971
-0.0365018366134629
-0.0373929249505138
-0.0379320011356006
-0.0384214997510045
-0.0389869200294504
-0.0397623492521383
-0.0406573162927345
-0.0414734245800384
-0.0421302450424873
-0.04254933886439
-0.042863812493805
-0.0431397017219009
-0.0434182653054346
-0.0437326564988563
-0.0440438233070068
-0.0443747817653863
-0.0445533549371165
-0.0444628570130718
-0.0440101283531718
-0.0432765226564422
-0.0425457136997879
-0.0418907391117226
-0.0414061503027895
-0.0409247630354707
-0.0403538279657951
-0.0397623492521383
-0.0390655329073713
-0.0383734984397079
-0.0375793305424767
-0.0366925999760951
-0.0358656390254287
-0.0350884387210968
-0.0345433759965884
-0.0341596796203203
-0.0339377638529767
-0.0339570462613261
-0.0341064456742056
-0.0344939963480223
-0.0349761198423768
-0.0354822092120377
-0.0360246884224373
-0.0364295318107447
-0.0368421883325227
-0.0372169375277415
-0.0376011847270253
-0.0380923305835485
-0.0384619703527777
-0.0387382076854292
-0.0387482039547158
-0.0384759132597836
-0.0380923305835485
-0.0375328672571814
-0.036994257687894
-0.0364301295234518
-0.0358680499349461
-0.0354680155329073
-0.0351795932241106
-0.0351542605811259
-0.0352989127912913
-0.0355650676178074
-0.0360246884224373
-0.0366794973639048
-0.0377317839936806
-0.0391394346177791
-0.0408091900486151
-0.0426252383982922
-0.0444403780933752
-0.0463445831702419
-0.0482541481079474
-0.050049957796072
-0.0515320046307712
-0.0524788428032258
-0.0529979425646195
-0.0531357347755489
-0.0529751264440233
-0.0524863010128225
-0.0514690880447108
-0.0499824174465064
-0.0479991897367902
-0.0455945069777268
-0.042863812493805
-0.039743110855912
-0.0364368008442779
-0.0330138245894457
-0.0295963622638662
-0.0263226752049155
-0.0231149706723596
-0.0201431661213813
-0.0174241545275558
-0.0150590616294233
-0.0132010999517099
-0.0117981297193446
-0.0110006278524761
-0.0107036052191322
-0.0108557712437899
-0.0114515565846158
-0.0123700546548602
-0.0137666992439943
-0.0155518720211338
-0.0176774316677836
-0.0200402240230777
-0.0224346093846955
-0.0248838396333317
-0.0272170834222129
-0.0293651327135522
-0.0312532065121807
-0.032840296385292
-0.0343049859469649
-0.0356043112495484
-0.0366207993272283
-0.0371380342014971
-0.0369491664384122
-0.0362824657715298
-0.0353859544181936
-0.0344837254138206
-0.0337184721658132
-0.0327555510665972
-0.0315608261580002
-0.0299344944294961
-0.027705843043449
-0.0251298047273514
-0.0219767656846417
-0.0186877332611063
-0.015366034129737
-0.0119246734470155
-0.00874771683547041
-0.00552526388806686
-0.00278961290006496
-0.000791493717288462
0.000379778067696087
0.000318098794017106
-0.000895076056045871
-0.00347797482396578
-0.00763921111556836
-0.0136018585956061
-0.0211535698021376
-0.0308477380734359
-0.0419462294196555
-0.054404346208465
-0.0686831368835266
-0.0834214087309861
-0.100184520818541
-0.117109429353098
-0.133792409412988
-0.150873845141396
-0.165808996381417
-0.18057539863738
-0.192581485236256
-0.20098661297008
-0.206249010491325
-0.205491820935051
-0.199849362369465
-0.186669211408316
-0.164335560831912
-0.132174164006467
-0.0878747918472255
-0.0310339152187015
0.039138429904472
0.122872926139983
0.219511900456012
0.327085084948089
0.444595932821554
0.568238644372846
0.694960200657352
0.821784072713496
0.943003874863711
1.05649943256645
1.1562640636456
1.23853363015179
1.30081743372363
1.33863924992249
1.35217634040149
1.33853204067749
1.29737392794156
1.22943533251608
1.1344198241635
1.01553305304861
0.874312298328266
0.714422075824368
0.540068905969601
0.355077778821595
0.164768031486275
-0.0264352705107445
-0.213659269962003
-0.391991190660958
-0.557388611816474
-0.706250398770006
-0.834858226357599
-0.941477762616979
-1.02367173867649
-1.08066112797461
-1.11358278637845
-1.12146451759008
-1.10758540295157
-1.07288192532344
-1.01998378301585
-0.953886058416567
-0.875466088011333
-0.790512810186065
-0.701313232390288
-0.610988258608356
-0.524287225196042
-0.441550931196597
-0.366378984579604
-0.299412301825605
-0.240959836467958
-0.191715374040592
-0.150340998639433
-0.116119175362586
-0.088222182176174
-0.0653693021705153
-0.0460733519359846
-0.0305943870270017
-0.0171940642244818
-0.00643973598167497
0.00198811746260691
0.00969612758961085
0.0147741566649632
0.0191396822910511
0.0218130785109713
0.0228235884707274
0.0237591285535311
0.0227977201846169
0.0216293073364471
0.0197468958831683
0.0173363842739323
0.0155784157055077
0.0134582308212798
0.0118060623951228
0.0102185843703715
0.00858866743846186
0.00721991950242737
0.00573829026538629
0.00459331960813272
0.00387457207502699
0.003737660829701
0.00413357593596203
0.00474081193504913
0.00544061145304381
0.00622207304128277
0.00731627226239344
0.00875542375118855
0.0105026265411549
0.0123947858755345
0.0144178338149591
0.0167797113844023
0.0195040227760896
0.0225816647172889
0.0257214988892796
0.0287125989690218
0.0315713053061978
0.0342858409753453
0.0369227113509885
0.0393056175428995
0.0412077823150658
0.0425457136997879
0.0432824413210717
0.0436057149531053
0.0436201235833729
0.043349466390383
0.042863812493805
0.0421529710078288
0.0413919111469959
0.0406555239775558
0.0398885010638902
0.0390466269655998
0.0379329591494811
0.0366309183021921
0.0351945612328625
0.0336544327352787
0.0321279781957277
0.0305445888768311
0.0291332788142436
0.0279961781233322
0.0271600454943407
0.0266407739989326
0.0261640941930645
0.0258350420799349
0.0257178619214655
0.0259992814693057
0.0268793480944455
0.0281067950737148
0.0295985586599459
0.0310953891680658
0.0326131821774721
0.0344341944523517
0.0365949756555531
0.0392213868823711
0.0419965753540309
0.0446031449609735
0.0469195721175231
0.0487627623604445
0.0503746790766876
0.0518005357030145
0.053084161663266
0.0543153690784209
0.0552532949157082
0.0559950950923782
0.0564936796071632
0.0567801738711459
0.0570192088275663
0.0569420284732056
0.0565537863955699
0.0557082262557524
0.0544263275942328
0.0530429739023524
0.0514982008795244
0.0500089724622554
0.0485295749793327
0.047123371031739
0.0462038498309847
0.0457809899342567
0.046171650528152
0.0472562516840854
0.0488612345796251
0.0510548564397455
0.0534603715693935
0.0561926924812247
0.0590235650268653
0.0618097802324749
0.0647331045824811
0.0675270497452347
0.0704551173284689
0.073357574751527
0.0760950870424911
0.078808976217738
0.0811878098626524
0.0835557071916477
0.0858699740089483
0.0881121747164269
0.0904991068978667
0.0926844084063051
0.0949175184779982
0.097072993166097
0.0990528230040618
0.101075891798935
0.102809857903093
0.104582062867164
0.106350761159161
0.108047637457071
0.10990313333291
0.111443271861426
0.112878846905541
0.114010250247079
0.114732467677536
0.115469862228209
0.115985947481316
0.116846320071139
0.117942196779526
0.119033290106741
0.12032086883697
0.12129818403789
0.122575948005634
0.124152231030892
0.125908732122579
0.128114289290389
0.130105660936355
0.132482580832249
0.135245167570471
0.138355765354317
0.142190160925646
0.145908411625097
0.149983480213264
0.154229060648465
0.158557373853157
0.163502780124792
0.168203424587961
0.173156589623437
0.178015045659978
0.182557251049348
0.18743971437458
0.191884282055209
0.196677602138825
0.201604142337369
0.206448037361353
0.211933321513897
0.217160903085165
0.222933513561781
0.228915270480803
0.23472711517515
0.241118885864966
0.247206808746867
0.254062423285512
0.261456741511456
0.268906315569588
0.276984524890395
0.284500297570353
0.29255598417277
0.301004357808489
0.309478714480735
0.318655466906636
0.327201672118989
0.336269234511432
0.345674303698315
0.355038466947668
0.365018366134629
0.374029443988087
0.383193095363642
0.392326567966987
0.4012543747705
0.410904117171597
0.419641197770518
0.428475832949271
0.436922750926067
0.444713280284596
0.452972682680359
0.460284783079461
0.467972175701734
0.475560052453506
0.482735128237679
0.490587865072882
0.497619743492345
0.505241917557722
0.512877481778093
0.52013197802629
0.527964473369892
0.534689484177646
0.541742430030983
0.548492927749384
0.554656231677938
0.561285322043184
0.566752780151077
0.57265856151771
0.578340327053969
0.583526088851693
0.58911896651968
0.59332534578448
0.597743317423551
0.601737466595446
0.605306518180656
0.609477289336775
0.612467760821091
0.615732630008986
0.618356324464276
0.620302716261937
0.622598864589981
0.623690220847444
0.625180180306587
0.626125864753994
0.626485677130995
0.62705224770622
0.626219720822213
0.62552656017302
0.623985242788796
0.621708711640745
0.619497401348314
0.615919255148426
0.612554484683018
0.608352782204264
0.603432207213127
0.598423356244681
0.591997440683529
0.585805774944687
0.57885420200895
0.571320138669046
0.563591538299808
0.554266337401235
0.544886773401275
0.534527167367507
0.523634644526032
0.512695731257071
0.500564775331356
0.488816149427264
0.476564912769419
0.464353168803243
0.452575059187838
0.440167949663519
0.428516204298323
0.416506585244406
0.40442501272905
0.392295337721596
0.379078206486225
0.366243189625117
0.353073381917978
0.340285419507315
0.328039381330141
0.315320925087612
0.303158675453854
0.290447792129587
0.277614743624749
0.264737721320737
0.251168157528953
0.238213495470357
0.225144229595825
0.212452447974218
0.200004616738255
0.186985005560211
0.174357346606871
0.161461665726808
0.148919272642473
0.136782481427356
0.124512987083609
0.112953041854197
0.101467398334301
0.0905612359317742
0.080240420790815
0.0701129241912581
0.0608946916104706
0.0519695802825718
0.0436332748804477
0.0357065896284202
0.0278561247068456
0.0206957172348758
0.0138022740936626
0.00748164760340876
0.00151096927158125
-0.00437548088679041
-0.00973717543413911
-0.0149192725190683
-0.0197103889208931
-0.0244140824408129
-0.0292310069418096
-0.0337978765905192
-0.0382052204940187
-0.0421161919098309
-0.045726701639959
-0.0491643555184454
-0.0523120811868107
-0.0553028118621637
-0.0579645961715683
-0.0605978202602587
-0.0633520998520129
-0.0663798670978767
-0.0698108051557949
-0.0734041229806477
-0.0771389575491482
-0.0805884178567274
-0.0836252373851923
-0.0862146628093732
-0.0883681341035474
-0.0904991068978667
-0.0924109727867297
-0.0941249137207378
-0.0953783013027044
-0.0959601564581351
-0.0962248851901746
-0.0961114692690495
-0.0960649772507707
-0.0961608820037804
-0.0964071916712822
-0.0970996568737216
-0.0979431242898649
-0.0991442897536747
-0.100563665825971
-0.10217051708483
-0.104256879739107
-0.106574854676838
-0.109335501457949
-0.112313854523983
-0.115422649956769
-0.118889424263893
-0.122478743530336
-0.126410223809344
-0.13028444947215
-0.133742248702399
-0.136702956728851
-0.138792270390238
-0.140416296230199
-0.141471685255274
-0.141868586406127
-0.141633488036116
-0.140367156984965
-0.138543237757647
-0.136236761849715
-0.133611192740855
-0.130897653738039
-0.127739202577157
-0.124530258597159
-0.121227802529795
-0.117939419143502
-0.11491318933868
-0.111844416076172
-0.109161442017648
-0.106795432508593
-0.104846808207895
-0.103541157452568
-0.10257807203564
-0.102324113111327
-0.102496815271155
-0.102961592836045
-0.103700206849577
-0.104345535932584
-0.105364540159233
-0.10656074046627
-0.107830629273445
-0.109028361649363
-0.109666194708485
-0.110198990582224
-0.110593290517582
-0.110995304652074
-0.111414102604491
-0.111376404959846
-0.111148609563795
-0.110519911792154
-0.109511959905249
-0.108153589965816
-0.106103378701671
-0.103758879191409
-0.101092076922262
-0.0982578352808711
-0.0954296382051318
-0.0923579590531275
-0.0894612776189373
-0.0867144539338825
-0.084219583958149
-0.0820694888564134
-0.0798556736088813
-0.0777716286798766
-0.0755757969340995
-0.0732730630368488
-0.0710155557643189
-0.068642772473156
-0.0666508867023967
-0.0650748922746147
-0.0640907033554999
-0.0637788082004298
-0.0637659816398238
-0.06418207140949
-0.0647643292949594
-0.0655906176101718
-0.0668007467435923
-0.0682150865239527
-0.0700339485612581
-0.0719080846534707
-0.0736737624974385
-0.0752303647850456
-0.076310714959664
-0.0771886606838404
-0.0777143082157088
-0.0778295547380052
-0.0774570563431653
-0.0762552784265662
-0.0744773718433586
-0.0721222006564953
-0.0693613285730744
-0.0664031232510709
-0.0630574723657583
-0.05958421162447
-0.0559335848172887
-0.0522111780737146
-0.0486691154846172
-0.0452512272052138
-0.0423050371871345
-0.0398093201241939
-0.0378020512777801
-0.0364223119149586
-0.0355623566673987
-0.0355458675065236
-0.0363015251878348
-0.0377439691203757
-0.0397623492521383
-0.0419892014730306
-0.0445657308457497
-0.0473364579958005
-0.0502563372457132
-0.0532815479978653
-0.0560982182888534
-0.0588647219251271
-0.0613935313408471
-0.0635573022230984
-0.0652102527735067
-0.0659738681988623
-0.0660355146633977
-0.0654670436710812
-0.0645328680010485
-0.0635402341049169
-0.0624107641216368
-0.0613125180200284
-0.0601017523695874
-0.0586932919958769
-0.0571782582245748
-0.0554598210067944
-0.0538400197064275
-0.0524018451534116
-0.0512003779091023
-0.050339134153207
-0.0495767043283025
-0.0490257902624108
-0.0485878026137972
-0.0482458028564745
-0.0481124425950873
-0.0479554579661944
-0.0479597449189757
-0.0480585538738454
-0.0483299631119145
-0.0489872142786343
-0.049817467522737
-0.0509628363374215
-0.0521810294865935
-0.0533854393094578
-0.0547129925709422
-0.0559986735626182
-0.0574869141849338
-0.059016882103536
-0.0604716753054833
-0.0618702154363271
-0.0629793229574918
-0.064037908884049
-0.0650415228943484
-0.0660593494775975
-0.0671983702361136
-0.0682305920357229
-0.0692485467156757
-0.070162718849559
-0.0710341803835977
-0.0719698521463703
-0.0727519565561719
-0.0733628794984424
-0.0736238594450551
-0.0736140741276295
-0.0735603461164558
-0.0734374013267743
-0.0733016256435359
-0.0728883888317147
-0.0721148485091041
-0.0710950804628232
-0.0698373288197136
-0.0685721066310582
-0.0671480834299657
-0.0654697082681672
-0.0635402341049169
-0.0612378967433253
-0.0588544526444482
-0.056373178559978
-0.053834251114898
-0.0512934305352584
-0.0485267348918184
-0.0457858873765437
-0.0430710323501436
-0.0405270926458395
-0.0383309046790613
-0.0362313591022522
-0.0343922423601288
-0.0326868399504536
-0.0312302840774095
-0.0302989101301294
-0.0297733358208896
-0.029881262375454
-0.030409330945303
-0.0312704281943215
-0.0325256016882491
-0.0339391394318601
-0.0357233814915148
-0.0377326097194065
-0.0399324924692059
-0.0423866643027794
-0.0448386420328456
-0.0474275367463867
-0.049988893941677
-0.0524891449545864
-0.0550310913649593
-0.0574474179869669
-0.0598488678572851
-0.0619975291558563
-0.0636887994905082
-0.0648921539794896
-0.0655348522148911
-0.065929244617586
-0.0661702934973789
-0.0662627334938393
-0.0661645491555581
-0.0657231604646075
-0.0651203054744124
-0.0644902167748995
-0.063963959105316
-0.0635402341049169
-0.0629945252190477
-0.0622900521632501
-0.061387620037005
-0.060423772256351
-0.0594844744811988
-0.05842099532377
-0.0571832615383596
-0.0556428537312376
-0.0539577424081482
-0.0523272516158139
-0.0506719636020423
-0.0489406247882073
-0.0467954358744434
-0.0442143570116826
-0.0414323679207281
-0.0385432534623333
-0.0358679970168314
-0.0332522669684543
-0.0306231056696612
-0.0280722185720096
-0.0254690165797331
-0.0231135166529101
-0.0208841330298084
-0.018711081251747
-0.0167001866858981
-0.0146786085119201
-0.0130356543072301
-0.0117967621875416
-0.0109888261758131
-0.0107358342980773
-0.0107617684778685
-0.0113638475831644
-0.0125736029367784
-0.0144808694107275
-0.017256859575428
-0.020571442697761
-0.0245238336561849
-0.0289430446636522
-0.0337420934952217
-0.0389671022670955
-0.0441871771448872
-0.0493434320680236
-0.0541960025501627
-0.0587036736418538
-0.0631426106123956
-0.0674035491629847
-0.071602798831909
-0.0755027833194124
-0.078857380011864
-0.0817513900623962
-0.0840503907402891
-0.0859849637365585
-0.0875210977300986
-0.0885133626348565
-0.0890676623247897
-0.0890844988476071
-0.0888722654542463
-0.0885376234054249
-0.0880331804932366
-0.0874771683547041
-0.0867510686639704
-0.0861551474596545
-0.0857606333102799
-0.08546746831225
-0.0852504767965844
-0.0848599229879471
-0.0846109453328329
-0.0846231215845248
-0.0849269819957221
-0.0854890508920972
-0.0858939985992756
-0.0863002213760719
-0.0866601903592138
-0.0870336537503288
-0.0874771683547041
-0.0876102995734027
-0.087610081601494
-0.0873553540344205
-0.0869479083245232
-0.0866023966711571
-0.086089430884786
-0.0856811619617903
-0.0851535632883531
-0.0844048242291375
-0.0835009334294903
-0.0821798317004942
-0.0808581172091467
-0.0795315246602614
-0.0782702849299443
-0.0772184822476525
-0.0760582158987814
-0.0750850763295239
-0.0741744290160756
-0.0733225475945644
-0.0726855744329087
-0.0720207204496051
-0.0717199229612504
-0.0717143220620046
-0.0719851253718445
-0.0726060497344044
-0.0732456486419036
-0.0742169212336426
-0.0753972727681288
-0.0767333338990394
-0.0782523033282081
-0.0796110410187863
-0.0811059119270207
-0.0826242242937202
-0.0841146442819567
-0.0855685755906015
-0.0866376455328036
-0.0876226072389202
-0.0885028425788545
-0.0893412823415413
-0.0901810081038496
-0.0906552517710992
-0.090955082426984
-0.0910398690409473
-0.0910526068369804
-0.0911353044859009
-0.0909364884320448
-0.0904759027751077
-0.0895346612579007
-0.0882347192302304
-0.0869204954651742
-0.0855658430629208
-0.0843901492357035
-0.0831311495385682
-0.081686842580621
-0.0801608960923107
-0.0784320041443852
-0.0768391331493405
-0.0753087261173723
-0.0738889148459737
-0.0726855744329087
-0.0714075957669551
-0.0702362861783696
-0.0689788776440175
-0.0676883148342409
-0.0665621726480794
-0.0653706875250222
-0.0643413275726781
-0.0632686382206754
-0.0621921405963491
-0.0613135425467972
-0.060410893653805
-0.0597107436411723
-0.0590076143061652
-0.0583543556965839
-0.0579735052096176
-0.0577205739362001
-0.0578239738686365
-0.0580836625832817
-0.0585165594578539
-0.059245900385686
-0.0601264600924941
-0.0613361212410263
-0.0626964599565584
-0.0642211363627399
-0.0659259750600452
-0.0675001802044751
-0.0689201306487672
-0.0699072516777947
-0.0705341238090993
-0.0710950804628232
-0.0714555477250208
-0.0717910672715308
-0.0717537709600007
-0.0711506103005232
-0.0702203087792762
-0.068607796468013
-0.0666810965373126
-0.0641974929957334
-0.0609192305984689
-0.0572577829230791
-0.0528208720299655
-0.0483607609760122
-0.0440683655581198
-0.0400136134414022
-0.03681993540748
-0.0340652988734267
-0.0322936327876251
-0.0316621793533049
-0.0323782739062905
-0.0349908673418817
-0.0396666145845632
-0.0465013087870388
-0.0554593055419263
-0.0666662709368266
-0.0795246985042765
-0.0949338949772627
-0.111890825494333
-0.1300214457658
-0.14951403154519
-0.168194737336545
-0.187774326212284
-0.206331325408278
-0.223383989100378
-0.239418981902573
-0.251298047273514
-0.260688008332113
-0.265275713673496
-0.264335046998669
-0.258137036476483
-0.243584151518599
-0.220741979443706
-0.187383204882735
-0.142279300223013
-0.0851924665790973
-0.0151096927158125
0.0685820473216253
0.16528140115907
0.274259715464456
0.393926191656704
0.520330102313481
0.65183106677784
0.782857966026139
0.909417776613368
1.02805767496194
1.13259075609791
1.22154281776498
1.28936754036789
1.33338488452453
1.35210966434613
1.34213833665667
1.3046864895055
1.23806297238139
1.14362682468552
1.02379279504986
0.880258887743837
0.717586811206939
0.538553023061026
0.347897828204441
0.15082426823854
-0.0477943438010702
-0.242336388197779
-0.428333706186097
-0.60166643273176
-0.758008041222894
-0.894016660585077
-1.00727101019986
-1.09500997983297
-1.15749929479024
-1.19378567715941
-1.20456060824428
-1.1924935206036
-1.15747873346962
-1.10435229778663
-1.03522002989632
-0.953660184463284
-0.865202950648208
-0.770803638526704
-0.676026381906477
-0.583094924595349
-0.494723149395104
-0.414491148815475
-0.341976793195742
-0.278865841059977
-0.224987093964475
-0.179964392715178
-0.143348989960273
-0.114092312282751
-0.0902697655268081
-0.071061527132195
-0.0553491901589765
-0.0413899071198889
-0.0305136733192424
-0.020701454564231
-0.0127403018289
-0.00652102527735067
-0.000393458444980729
0.00308474276341159
0.00566900393819621
0.00637953351876655
0.00532815479978653
0.00424484044004673
0.00141123080669804
-0.00177216897113943
-0.00581798503419523
-0.0105767849010688
-0.0148812197904215
-0.0194079197533797
-0.0234080382001392
-0.0271296377986448
-0.0306170089241465
-0.033436377159926
-0.0357072072580743
-0.0369641476506144
-0.0371326394662769
-0.0362632625179501
-0.0344145805869112
-0.0319499785649863
-0.0289925444956736
-0.0256233750950626
-0.021869292088676
-0.017665062175187
-0.0131346404557847
-0.0084905772747541
-0.003981325655166
0.000159049397008553
0.00388179338783516
0.00719080601449125
0.0100042545742146
0.0121108662214228
0.0132806246502142
0.0134896060307627
0.0129433325665708
0.0119411179145919
0.0105488805956642
0.00866819213696614
0.00617737680642501
0.0030981806459379
-0.000261824658375575
-0.00366941830971067
-0.00691864876987206
-0.00990890866490161
-0.0126260415538715
-0.0149273858253865
-0.0167520114580965
-0.0179725818619665
-0.0184533067505106
-0.018128598423527
-0.0169960663438662
-0.0152505191432997
-0.0131215752532056
-0.0107833037244409
-0.00822382500250838
-0.00540092522042663
-0.00234926913635284
0.000795246985042765
0.00376647739740901
0.00650719557549398
0.0089973264755542
0.0112716162707264
0.0133601493487185
0.0150472000386675
0.0162349149415632
0.0168308733095041
0.0168611255329615
0.0165411372888895
0.0159197203100297
0.0150940014331308
0.0141217538257634
0.0130642907856548
0.0121672788711543
0.0115285358507953
0.0112233966477945
0.0112695236337961
0.0116243281008423
0.0124058529666671
0.0136024986266763
0.01523674158452
0.01727927965869
0.019648287543289
0.0223464402797017
0.0251216101026161
0.0278213106728758
0.0302844097047352
0.0324987081857323
0.0346727685478646
0.0366672896993925
0.0384103956236599
0.0396329437409439
0.0402251940890103
0.0404780715386767
0.0404449614655324
0.0404011473371869
0.0403105826539569
0.0400860987221968
0.0399213986491468
0.0397110834761631
0.0396762460240711
0.0398271336062784
0.0401280979371374
0.0407961703326938
0.041680424888289
0.0429461438408286
0.0445253976204006
0.0463150851297697
0.0485100660876087
0.0509479798695428
0.0538626074291155
0.0571269943067134
0.060495744278096
0.0640173822959426
0.0673833554066065
0.0709089791792872
0.0745083975825031
0.0779121788186729
0.081115192474362
0.0836823713572074
0.0860086013418718
0.0881275547295944
0.0898776943716153
0.0913738785814137
0.0922193673937783
0.0929968821442557
0.0939860694438565
0.0952182940368097
0.0968610827782088
0.0982673156859728
0.0997696499639449
0.101530180563116
0.103719421909102
0.106801670091243
0.110154762185159
0.113918104458327
0.117813652856647
0.121693203446164
0.126046647129278
0.130366037758258
0.135031377053734
0.139736086661508
0.144198534436629
0.148870235600006
0.153180088261822
0.157702482334004
0.162184464796533
0.166319146105598
0.170580478291673
0.174316034079796
0.178312272865965
0.182496576219709
0.186662033048775
0.191336424601289
0.19562816099867
0.200248411976524
0.205062356768293
0.209877181000359
0.215352883549581
0.220470688561962
0.225960071298434
0.23164061751341
0.237364979838409
0.24398177501112
0.250372503075213
0.257245208421894
0.264208865706547
0.271026657885525
0.278734068257489
0.286295632889231
0.294614820882974
0.303144320291882
0.311368126160368
0.320166436178217
0.328387117349404
0.337207109132844
0.346281354844716
0.355217118146354
0.364938841436125
0.374118326649538
0.383940416175857
0.393974217328971
0.403755685800185
0.414164629810272
0.423701138850464
0.433610760313711
0.443459394007483
0.452833590379839
0.462674695897881
0.471403501752944
0.480351564457903
0.489057299781494
0.497148740147383
0.50561803309019
0.512843082341508
0.520291359714351
0.527521314836696
0.534264075711182
0.541563196814123
0.547726212958808
0.554267993285594
0.560665068628363
0.566707392974902
0.573452600914338
0.579153290481735
0.585290600702906
0.59113546305856
0.596432212586213
0.602161017074382
0.606604768137267
0.611345548228284
0.615628678508129
0.619323468161112
0.623394111575024
0.626231619667734
0.629492031193074
0.632333213396589
0.634615766942335
0.637072359717759
0.638074926780777
0.639316386078002
0.640016090299564
0.64021653094142
0.640491921753443
0.639085735086938
0.637437084310831
0.634615572085324
0.630876601328814
0.626972723007716
0.621507594953696
0.616019498501783
0.609473935369161
0.602056817820681
0.594288071922458
0.584842875427512
0.575327369511364
0.564832567838029
0.553780315849258
0.542676542593183
0.530336313568235
0.518322145319823
0.505710761841951
0.493007683694172
0.480567753061343
0.467216446768034
0.454335226098712
0.440925233795165
0.427599715990983
0.414721302699802
0.40128281485717
0.38854996078901
0.375369123672553
0.362229800089681
0.349352000529287
0.335882392090306
0.323112856115011
0.309954202386961
0.296807139452968
0.283664599564754
0.269679235359401
0.25607895067711
0.242000639555752
0.228010117741596
0.214160013072017
0.199794969569317
0.186049854989407
0.17222860551714
0.158949564182004
0.146245920549364
0.133586788407917
0.121869974112523
0.11040187735873
0.0996628860154661
0.0895448105158154
0.0795980583542616
0.07053340629342
0.0617443717417459
0.0536289950704071
0.0459652757354718
0.0382969613868226
0.0310982947892357
0.0238312005479477
0.0168798611236776
0.0100996367100431
0.00318848082377805
-0.00350532275188255
-0.0104531650635655
-0.0173469659567155
-0.0242550330438043
-0.0312114507796184
-0.0378353336737868
-0.0443948810325316
-0.0506735930079249
-0.0568601594305577
-0.0629397999767558
-0.0686551379393316
-0.0740502813501156
-0.0788058967830681
-0.0830237852384647
-0.0865319385777994
-0.0892348510978738
-0.0912128378494113
-0.092396853454162
-0.0932029466470121
-0.0936604636924152
-0.0939482676891645
-0.0940780176899692
-0.0938644496716945
-0.0936005701395335
-0.0932630837800473
-0.0932775527126401
-0.0938001080644579
-0.0947327925992686
-0.0962248851901746
-0.0979148057344526
-0.100009618488216
-0.102411847846725
-0.104954130702123
-0.107755966473295
-0.110407801695114
-0.113201852561662
-0.116014093793279
-0.118716681206002
-0.12143421461603
-0.123730627235242
-0.125999084628323
-0.128154918401117
-0.130143928239759
-0.132090524215603
-0.133488233263429
-0.134696956847575
-0.135664923138528
-0.136484301107318
-0.13741867901539
-0.138030444751364
-0.1385905265953
-0.138929902601552
-0.139115210645103
-0.139486321176501
-0.139744054952296
-0.140186428025376
-0.14051839748473
-0.140634733998607
-0.140758716352569
-0.140617944187058
-0.140699887908777
-0.140846507943241
-0.14099264024885
-0.141235864543595
-0.14104244433948
-0.140735202090688
-0.140056924457114
-0.139003401035487
-0.137816302507911
-0.136077415062121
-0.134270985460087
-0.132256404832428
-0.1301649807097
-0.128352863385902
-0.12641735110089
-0.124815886098492
-0.123333384406789
-0.122061462616757
-0.121354689917526
-0.120801793199259
-0.120795585520507
-0.121001744478784
-0.1213927018933
-0.122229461601073
-0.123091079734956
-0.124356065344234
-0.125679084610589
-0.127004449568871
-0.128511912782911
-0.129770998578561
-0.131150055073546
-0.132374837328394
-0.133508109422693
-0.134794363964749
-0.135864639291428
-0.137024911557069
-0.137924077003582
-0.138546362809499
-0.13908869768398
-0.139231638934866
-0.139297227079768
-0.138962938684033
-0.138191745035014
-0.137180104919877
-0.135698848457298
-0.134171537877959
-0.132343910251102
-0.130116295264401
-0.12755761640086
-0.124393303209521
-0.121179273853971
-0.117915622041015
-0.11472892460254
-0.111732201398508
-0.108518716732753
-0.105469427878837
-0.102476696561608
-0.099717359424672
-0.0974177556677387
-0.0952523862361652
-0.0935752379825512
-0.0921216548030673
-0.0908998678672244
-0.090021958706841
-0.0891452493967221
-0.0886861904946434
-0.088407206729844
-0.0882819838882292
-0.0883519400382512
-0.0882061630875291
-0.0882591357663989
-0.0883205878067134
-0.0883905650009406
-0.0885109894352598
-0.0882460342857502
-0.0879549293795577
-0.0874772803415245
-0.0868721529185769
-0.08628429787714
-0.0854098776336008
-0.0846363779502585
-0.0838526707012176
-0.0831091911937109
-0.082546637047439
-0.0819082836113695
-0.0815954540300167
-0.081574866811556
-0.0819048403603315
-0.0826261617459433
-0.0832917583835922
-0.0840526259586671
-0.0847551569010526
-0.0854819315244407
-0.0863638225756443
-0.0869600675487432
-0.0873004838544007
-0.0871064683570079
-0.0865024445923065
-0.0858866743846186
-0.085149002992888
-0.0845328647009842
-0.0837419525935006
-0.0827428864097987
-0.0818309147609005
-0.0809366704141005
-0.0804083984260753
-0.079971998043327
-0.0794269671792467
-0.078808976217738
-0.0779305394137646
-0.0772262637462813
-0.0766943688950804
-0.0763729232598052
-0.0763437105641055
-0.0763096000024282
-0.0765331000477656
-0.0768892623138981
-0.0773787852359174
-0.0780932539311995
-0.0787169711390458
-0.0795279784870292
-0.080379866240932
-0.0812356276500795
-0.0821490135549176
-0.0826882137678901
-0.0830644442607844
-0.0831105155905927
-0.082828573970807
-0.0823875876504305
-0.0814601694334356
-0.0803546266421728
-0.0790262153145375
-0.0776136866899468
-0.0764232352626097
-0.0752274747660224
-0.0743065971811063
-0.0735698673661544
-0.0731524881466657
-0.0734012967194472
-0.0741693159227201
-0.0756453073678928
-0.0774911198794403
-0.079519796267883
-0.0818309147609005
-0.0842560598097954
-0.0870808152040803
-0.0899878620865531
-0.0926204666119088
-0.0947934406170976
-0.0962008508358145
-0.0973388089125233
-0.0983473282979615
-0.0992874553799182
-0.10004207071838
-0.0999950777586628
-0.0992003465094113
-0.0976048048755991
-0.09549808707284
-0.0932824713455163
-0.0908872273712386
-0.0885907834469197
-0.0862916297893671
-0.0840738465638592
-0.0821490135549176
-0.0804011558699529
-0.0790822061574433
-0.0780527960337281
-0.0773051819274499
-0.0769003834536354
-0.0765777807432112
-0.0764944351112833
-0.0764260283455031
-0.0763525611337187
-0.0763437105641055
-0.0761285561260641
-0.0758899124317423
-0.075344125336931
-0.074429267951938
-0.0732422473224387
-0.0716127132428575
-0.0699460785902384
-0.0681393407885775
-0.0662085002809417
-0.0642559563914554
-0.0620917750467168
-0.0601621202522733
-0.058466804421045
-0.0570536852651792
-0.0559853877470107
-0.0549803728133926
-0.0543367102167564
-0.0539494376727313
-0.0537546607136058
-0.0537586961888909
-0.0537259970101263
-0.0540515558268446
-0.054758865781594
-0.0558150782736775
-0.0570987335260705
-0.0582039367539374
-0.0593469120132278
-0.0605357565715785
-0.0618753189025221
-0.0633811847079084
-0.0647709519533668
-0.0661501545344954
-0.0673437509678586
-0.0682795896411759
-0.0688683889047035
-0.0689701918265912
-0.0689022441458766
-0.0688197250145621
-0.0689178122457381
-0.0691864876987206
-0.0693428383453834
-0.0693586390986508
-0.0690346574464228
-0.0683376798783489
-0.0672778949346179
-0.0656776593874494
-0.0637076095314251
-0.0612927913024819
-0.0584487653093461
-0.0552696654604722
-0.0515673841882098
-0.0476102106502566
-0.0433898445313392
-0.0389978586125402
-0.0346727685478646
-0.0302876326234858
-0.0262452660051675
-0.0226104546539101
-0.0195239745587159
-0.017256859575428
-0.0156027580777109
-0.0148716110212067
-0.0149890606250317
-0.0159826542608147
-0.0180521065604708
-0.0209064647376651
-0.024695327327546
-0.029078816773121
-0.0337708783196802
-0.0387285281715827
-0.043601709418349
-0.0487050691829898
-0.0539866903322724
-0.0593663013446556
-0.0648126292809854
-0.0697672093922714
-0.0742673339561536
-0.0781917603730847
-0.0816137598635875
-0.084852853304063
-0.0876664284171018
-0.0901359608819066
-0.0920621363606053
-0.0933408355013795
-0.0942367677275677
-0.0946437911097752
-0.0947856629604968
-0.0946730628417462
-0.0943467360970779
-0.0941572430290634
-0.0940931863830448
-0.094365774583459
-0.0948844785554923
-0.0955271506515215
-0.0963839345871831
-0.097241260418568
-0.0982323365043747
-0.0992298074356068
-0.10019506994077
-0.101234941195944
-0.102089576455588
-0.102883193566166
-0.103400206164861
-0.103623110602036
-0.103700206849577
-0.10337377062998
-0.102860620144482
-0.101951108509602
-0.100672379306021
-0.0992468237333371
-0.0974305685447061
-0.095503234275856
-0.0932558470205073
-0.0907248263386158
-0.0881928906412427
-0.0854708103192049
-0.0829384059865445
-0.0804743999104525
-0.0781464111897991
-0.0761846611670969
-0.0742461168447847
-0.0725973123081591
-0.0711371027221239
-0.0701209230909006
-0.0699817346837633
-0.0703851587978673
-0.0713997259427256
-0.0726239854851808
-0.0741213911539204
-0.0762641858656012
-0.0786700877083776
-0.08125975690193
-0.0834212234538535
-0.0851297143917179
-0.0869204954651742
-0.0887929133725541
-0.0909558542266731
-0.0928362475288144
-0.0941634413534881
-0.095191064109619
-0.0959615532685806
-0.0969440187649646
-0.0979468005144316
-0.0988292911719903
-0.0996444472258585
-0.100191428280056
-0.100737190844692
-0.101134603391838
-0.101348404454219
-0.101473515291457
-0.101327118526318
-0.101164981848073
-0.10087428159436
-0.100432141380754
-0.0998830213213713
-0.0989369058238746
-0.0978109111609531
-0.0963889424943424
-0.0947116228486925
-0.092884847852995
-0.0905774895031589
-0.0879995115256492
-0.0850166729919122
-0.0817688125215512
-0.0785704021222252
-0.0752913537485482
-0.072311987588164
-0.0695012005017649
-0.0669061831806491
-0.0647331045824811
-0.0627848234104631
-0.0614420988182761
-0.0605566943664184
-0.0601134070420872
-0.0602001967677373
-0.0605162576399546
-0.0613572861280684
-0.0625104207301024
-0.0639095350602091
-0.0656078762660281
-0.0673415830266662
-0.069416795878401
-0.0715510582649214
-0.073485027104294
-0.075071315388037
-0.0760754355795458
-0.0770535809039095
-0.0781393752802454
-0.0793281328827636
-0.0803994701878235
-0.0808835921406688
-0.0810278750889816
-0.0809569829731881
-0.0808579934459775
-0.0807175689818407
-0.0801546562930193
-0.0792704293310929
-0.078067448629312
-0.0767524727213737
-0.0755484635790627
-0.0742369062455585
-0.0730195870539258
-0.0717586402624576
-0.0704340058925078
-0.0692660123972248
-0.067862617507073
-0.0665450511728083
-0.0650834408996838
-0.0632541130646064
-0.0613135425467972
-0.058665539945977
-0.0558535671462792
-0.052839716415296
-0.0496001293739505
-0.0467605227205146
-0.0439737340988789
-0.0419951138741045
-0.0409517067957038
-0.0408736117661753
-0.0421480902072666
-0.0447490095236422
-0.0490445070748263
-0.055204274652116
-0.0634240812768034
-0.0732422473224387
-0.0854178579388364
-0.0993083460584917
-0.114866850235937
-0.132442849719716
-0.15006310607757
-0.16919734282453
-0.187937442573332
-0.205789663156346
-0.223213255826958
-0.237222175638257
-0.249575906576673
-0.258097020349869
-0.262031755271007
-0.26146017976649
-0.253047590640608
-0.236951819567243
-0.21112456997269
-0.174456488900221
-0.12654099454544
-0.0657669256630367
0.00882582708109538
0.0969068393310483
0.197893351396022
0.310481782775495
0.431341964687196
0.559314667546304
0.689130208994688
0.816858065498644
0.939119754757975
1.04980554495495
1.14744017832815
1.22609881476503
1.28245499601444
1.31444416145286
1.31812187770838
1.29450725413841
1.24155266697149
1.16014183438404
1.05218385750049
0.918828366518411
0.764477493254521
0.591765631117632
0.405340713378223
0.210149498047608
0.0108153589965816
-0.186906125343325
-0.378255471108752
-0.558546207516441
-0.723261030407996
-0.868966380556229
-0.992924372396115
-1.09202833310882
-1.16573266066337
-1.21269561519234
-1.23342807380133
-1.23035457129688
-1.20324877267286
-1.15636249625077
-1.0914393345514
-1.01195178846692
-0.923467135029293
-0.827217030514844
-0.728980021121849
-0.631205874807956
-0.536950764300875
-0.450194119208936
-0.370831189614898
-0.301019149695463
-0.240900354363029
-0.190382128219238
-0.149279706982182
-0.116458365270285
-0.0901189287994854
-0.0694625934434107
-0.0532815479978653
-0.0397179819692371
-0.0296855945131229
-0.0209688094348252
-0.0144077733562692
-0.00994058731303457
-0.00584582415091841
-0.00432231738602089
-0.00311185359736164
-0.00309544979810178
-0.00429433371923093
-0.00513845707668252
-0.0074932327292062
-0.00971571471379642
-0.0122545767528721
-0.0150301680173083
-0.0169161585361682
-0.0187423854250749
-0.0196473070607531
-0.0198270561899154
-0.0194040264350435
-0.0180841358017633
-0.0163256981737606
-0.0140510223362261
-0.0115528021436717
-0.00906581562948752
-0.00653516978499057
-0.00399805223458393
-0.00139430547416094
0.00105305674358981
0.00302193854316251
0.00437803481359537
0.00523645673951921
0.0058676271129903
0.00638602845820712
0.00668007467435923
0.00656905376589058
0.00599571602295664
0.00507024001976846
0.003915003017972
0.00262431505064112
0.00129329395823843
1.61777273916683e-05
-0.00106215860903875
-0.0019291853923916
-0.00262431505064112
-0.00312728730500242
-0.00340334394766976
-0.00333826097044743
-0.00295707377741685
-0.0023857409551283
-0.00175391356178954
-0.00112228591915085
-0.000464085521496427
0.000216934073505273
0.000874771683547042
0.0013656358484126
0.00166296939352945
0.00177829880189066
0.00178487547406707
0.00182906806559836
0.0018883111355417
0.00200214659883194
0.00208751704781172
0.00203374866527001
0.00182906806559836
0.00135445853666345
0.000682665986200314
-6.48753617610019e-05
-0.000701381909975025
-0.000954296382051318
-0.000779349121856946
-0.000158548488861065
0.00088235247454991
0.00235830757323073
0.00437385841773521
0.00681243023949943
0.0095371427671069
0.0124301803166992
0.0155150111556786
0.0189268782440178
0.0224354897530565
0.0256934592579707
0.0283340851470071
0.030321816812376
0.0320484534972234
0.0336384484430361
0.0350623608956158
0.0359844030012349
0.0361721537413287
0.0358656390254287
0.0351986937365043
0.0344313019556657
0.0335599361245506
0.0325257167159082
0.0315713053061978
0.0307127169558912
0.0301365434681011
0.0298412004993345
0.029773428411146
0.0301398607331208
0.0309081791065667
0.0322513267911857
0.0341513456824391
0.0365113167291491
0.0393647257596169
0.0423953553707191
0.0455581392628487
0.048665776930133
0.0516491977351711
0.0547129925709422
0.0577030860124308
0.0607840642752781
0.0637918181598258
0.0665643706606638
0.0691864876987206
0.0713210500002863
0.0731116100023053
0.0744167482633718
0.0751426430249164
0.0755484635790627
0.0754206464674867
0.0750930605096572
0.0745823933219691
0.0738908187315833
0.0734012967194472
0.0729472342436535
0.0729361408233532
0.0733808315495066
0.0741915690648646
0.075627988277567
0.0773096429915737
0.0795322916180416
0.0821719415161868
0.0850569483401333
0.0884314647367555
0.0918489027595982
0.0956906233078954
0.0998494463850071
0.104165413418218
0.108869312252355
0.113348447127019
0.117946045988526
0.1224864799935
0.126823354915197
0.131295277230561
0.135239914636026
0.139072445971935
0.142641137389676
0.145872253188106
0.149347383791031
0.152477759607383
0.155810909350328
0.159182705854023
0.16243463330612
0.166206619873938
0.169816735121047
0.173815202450761
0.177856103299386
0.181532348286474
0.185451596911973
0.188956755442784
0.19301057558681
0.197578949768611
0.202386413416336
0.208036611287187
0.213580043914603
0.219929790807722
0.226968712474777
0.234392476420402
0.242788904533556
0.250945505234656
0.259672675294867
0.26866766080938
0.277553525835128
0.287004636901934
0.295830745017759
0.305038347016562
0.314383981838167
0.323511144651173
0.333128962034414
0.341949604450994
0.351067033682014
0.360234120853638
0.369105775666667
0.378458040181852
0.386880941014429
0.395505781702139
0.403962615946662
0.411807604358064
0.41989040810258
0.426816977334825
0.43403858148095
0.441321285888906
0.448228636941953
0.455517473032496
0.461419368160339
0.467330162842688
0.472975915745299
0.478149873965293
0.483987315097027
0.488908054326441
0.494592205534859
0.500730209264835
0.507055470777612
0.514524799322669
0.521247540048633
0.528741327082535
0.536503542857778
0.544341292105078
0.553253327494252
0.561356639535696
0.570120350404047
0.578873776485843
0.587492907664372
0.596991911671604
0.605556995817742
0.614560604682316
0.623041889679204
0.630754661766409
0.63858332898934
0.644861810224818
0.651073904977387
0.656239420053551
0.660130121162172
0.663474559621179
0.664715581140154
0.665462234145617
0.664907423548731
0.663066392796859
0.660611670475025
0.65606894103648
0.651059332110339
0.644890505433082
0.637909991129004
0.630869433234425
0.62238360942156
0.61394004147406
0.604638851736477
0.594864093404955
0.585301780991475
0.57466551744287
0.564424330887726
0.553545461432983
0.542453034858229
0.531702134199593
0.520017176609376
0.508734317870215
0.496569226193918
0.483874537084639
0.471104313939334
0.457253475392159
0.443972687215831
0.430313753823446
0.416929814367032
0.404224042497237
0.391128066867821
0.378927431252194
0.366392035906522
0.35398649952533
0.341956203568389
0.329413843260074
0.317615879718004
0.3054293663001
0.293252969752995
0.281119809212617
0.268218129607789
0.255737513496154
0.242861770399874
0.230257915219685
0.218056723298726
0.205590465675841
0.193752888623115
0.181649423898372
0.169823461012873
0.158333674722015
0.146688585734821
0.135668675723429
0.124501478873568
0.113688487641687
0.103223058658551
0.0926934920998336
0.0826589053360069
0.0723968975020351
0.0623578528269215
0.0525658257113268
0.0427979714503076
0.0335224416764982
0.0240710393982439
0.0147554177615422
0.00556672889529936
-0.00349798543016527
-0.0118644329783364
-0.0199256085187321
-0.0274346602748123
-0.0345932438493603
-0.0415240674420881
-0.0478981186178922
-0.0540008577924687
-0.0595811561775529
-0.0648126292809854
-0.0696950736521672
-0.0740059661957807
-0.0779346363281269
-0.0813250764994151
-0.0844552298115417
-0.0872581159250883
-0.0896090781217137
-0.0915460651262346
-0.0929326826553864
-0.0941572430290634
-0.095188124854495
-0.0961351329315346
-0.0969972759013833
-0.0976320360844857
-0.09837205204979
-0.0990493696819392
-0.0998625988682986
-0.100774409922057
-0.101713770979955
-0.102984484563038
-0.104245898890978
-0.105611723931426
-0.106896350439732
-0.108143600281945
-0.10990313333291
-0.112095223822406
-0.115040348732257
-0.11836350250498
-0.121716735643935
-0.125171875445731
-0.128318231991164
-0.131544026843278
-0.13469480625559
-0.137671046041504
-0.140599666955561
-0.142875095904442
-0.144708555993431
-0.145882903561165
-0.146479185512571
-0.146961642835903
-0.147001805529219
-0.146922483203517
-0.14640533226149
-0.145376228830615
-0.144257803086758
-0.142891181205729
-0.141885510887488
-0.141133014553834
-0.140579157891365
-0.140440617558552
-0.140321600445027
-0.140655503491238
-0.141251925869464
-0.142053580387662
-0.143223982006202
-0.144318384417257
-0.145743612918457
-0.147240416254638
-0.148711065334526
-0.150222155474578
-0.151242335396633
-0.152180138060309
-0.152802997139399
-0.153126885057773
-0.153323618716245
-0.152939890399745
-0.152437691910163
-0.151578517056078
-0.150359116469647
-0.14894976029851
-0.146955024301289
-0.144934020358172
-0.142768277895192
-0.140521890979481
-0.138372975397441
-0.135912609989363
-0.133697130150732
-0.131675694598651
-0.129981281802479
-0.128750486878424
-0.127368983756208
-0.126103692457274
-0.124707901240381
-0.123371977827626
-0.122468035696586
-0.121615740070206
-0.121132759557774
-0.120611722772649
-0.120047547197211
-0.119684671248936
-0.119188238296889
-0.118958142118451
-0.118657522542177
-0.118303925890822
-0.118094177278851
-0.117716649510425
-0.117567851756775
-0.117368793137931
-0.117172986104576
-0.117139880896799
-0.116937786253429
-0.116865029784103
-0.116613935115818
-0.116224006280207
-0.115867485720731
-0.115239015546914
-0.114630535656874
-0.113717620373441
-0.112468911087481
-0.11101647911197
-0.109015401075786
-0.106808100995069
-0.104185701749786
-0.101245491418917
-0.0982925273512858
-0.095090375335478
-0.092053923927332
-0.0889511532834929
-0.0857653172516284
-0.0827056864444476
-0.0795178491565724
-0.0767033453680772
-0.0742092104575969
-0.0721929484887565
-0.0709360310658146
-0.0701924048190579
-0.0703281401713115
-0.0711013697854697
-0.0724543996570319
-0.0744351178000028
-0.0766414694948109
-0.0793248555186436
-0.0821855981420709
-0.0851175465679004
-0.0881133659427384
-0.0907371763464602
-0.0932950225294701
-0.0956662982498962
-0.0979365262893304
-0.100201120115388
-0.101880989100867
-0.102938255757473
-0.102972208397175
-0.102004311577946
-0.100439694210901
-0.09823979409731
-0.095860071046267
-0.0932664607310058
-0.0905867020114646
-0.0881928906412427
-0.0859875684974128
-0.0842702050776242
-0.0828702032291194
-0.0817501706317988
-0.081115192474362
-0.0808180959199472
-0.0811406720798523
-0.0818875280412854
-0.0829565925978667
-0.0843757051130374
-0.0858223050023176
-0.0874836088704421
-0.0891007425740252
-0.0905931893121378
-0.0920100761694479
-0.0930497002716275
-0.0940222250017181
-0.0947632439224987
-0.0952677236617625
-0.0955886876021404
-0.095274263586432
-0.0945380968220761
-0.0932049527547974
-0.0913796670052566
-0.0893857611188068
-0.087035434518832
-0.0847121762361054
-0.0823335133816945
-0.0799801194193878
-0.077934204534191
-0.075937919375669
-0.0742744211389777
-0.0727752605487072
-0.0714589014397422
-0.0706179322717975
-0.0700624696459322
-0.0701600799764611
-0.0708633736828727
-0.0721350729451299
-0.0737989202119686
-0.0758987889647781
-0.0790670089922365
-0.0830710189645657
-0.0869026869771124
-0.0894652858173111
-0.091028391829641
-0.0933076093058645
-0.0964354898958636
-0.0985187226355428
-0.0979744285572687
-0.0966484135096365
-0.0986039603652564
-0.103817199420117
-0.106886770182198
-0.103382108055559
-0.0974713865090967
-0.0991909289039729
-0.110523296193985
-0.118117351135664
-0.103620682151072
-0.0637271092456719
-0.0173924378323699
